[Measurement conditions]
Sample identification,
Comment - 1,"Configuration=Stage for Flat Samples, Owner=User-1, Creation date=1/29/2018 11:27:37 AM"
Comment - 2,"Goniometer=PW3050/60 (Theta/Theta); Minimum step size 2Theta:0.001; Minimum step size Omega:0.001"
Comment - 3,"Sample stage=PW3071/xx Bracket"
Comment - 4,"Diffractometer system=XPERT-3"
Comment - 5,"Measurement program=C:\PANalytical\Data Collector\Programs\Inorganic Chemistry Experment XRD.xrdmp, Identifier={BED71798-0955-4D0E-A3E8-9E510A9AEFB7}"
Anode material,Cu
K-Alpha1 wavelength,1.5405980
K-Alpha2 wavelength,1.5444260
Ratio K-Alpha2/K-Alpha1,0.500
Divergence slit,Fixed,0.76mm
Monochromator used,NO
Generator voltage, 40
Tube current, 40
File date and time,26/Mar/2021 16:05
Unit cell,
h k l, 0 0 0
Scan axis,Gonio
Scan range,19.500000003,32.501367267
Scan step size,0.0083556
No. of points, 1556
Scan type,CONTINUOUS
Time per step,10.160
[Scan points]
Angle,Intensity
19.504177820,2976.0
19.512533454,2975.0
19.520889089,2943.0
19.529244723,2944.0
19.537600358,2944.0
19.545955992,2884.0
19.554311627,2858.0
19.562667261,3013.0
19.571022896,2928.0
19.579378530,2925.0
19.587734165,2900.0
19.596089799,3032.0
19.604445434,2973.0
19.612801068,3013.0
19.621156703,2996.0
19.629512337,3086.0
19.637867972,3019.0
19.646223606,3029.0
19.654579241,3058.0
19.662934875,2938.0
19.671290510,3026.0
19.679646144,3135.0
19.688001779,3055.0
19.696357413,2959.0
19.704713048,3038.0
19.713068682,3000.0
19.721424317,3046.0
19.729779951,3069.0
19.738135586,3095.0
19.746491220,3170.0
19.754846855,3187.0
19.763202489,3132.0
19.771558124,3318.0
19.779913758,3373.0
19.788269393,3302.0
19.796625027,3393.0
19.804980662,3321.0
19.813336296,3582.0
19.821691931,3630.0
19.830047565,3748.0
19.838403200,3819.0
19.846758834,3876.0
19.855114469,4114.0
19.863470103,4224.0
19.871825738,4268.0
19.880181372,4589.0
19.888537006,4747.0
19.896892641,4994.0
19.905248275,5211.0
19.913603910,5272.0
19.921959544,5351.0
19.930315179,5436.0
19.938670813,5508.0
19.947026448,5288.0
19.955382082,5234.0
19.963737717,5207.0
19.972093351,5024.0
19.980448986,4977.0
19.988804620,4881.0
19.997160255,4765.0
20.005515889,4602.0
20.013871524,4625.0
20.022227158,4554.0
20.030582793,4474.0
20.038938427,4594.0
20.047294062,4507.0
20.055649696,4527.0
20.064005331,4626.0
20.072360965,4703.0
20.080716600,4659.0
20.089072234,4520.0
20.097427869,4512.0
20.105783503,4393.0
20.114139138,4220.0
20.122494772,4162.0
20.130850407,3809.0
20.139206041,3881.0
20.147561676,3663.0
20.155917310,3518.0
20.164272945,3421.0
20.172628579,3379.0
20.180984214,3144.0
20.189339848,3171.0
20.197695483,3086.0
20.206051117,3098.0
20.214406752,3062.0
20.222762386,3091.0
20.231118021,2959.0
20.239473655,2907.0
20.247829289,2849.0
20.256184924,2899.0
20.264540558,2976.0
20.272896193,2911.0
20.281251827,2918.0
20.289607462,2922.0
20.297963096,2893.0
20.306318731,2760.0
20.314674365,2857.0
20.323030000,2905.0
20.331385634,2894.0
20.339741269,2915.0
20.348096903,2853.0
20.356452538,2821.0
20.364808172,2788.0
20.373163807,2874.0
20.381519441,2947.0
20.389875076,2873.0
20.398230710,2862.0
20.406586345,2818.0
20.414941979,2973.0
20.423297614,3014.0
20.431653248,2876.0
20.440008883,2896.0
20.448364517,2838.0
20.456720152,2920.0
20.465075786,2928.0
20.473431421,2873.0
20.481787055,2906.0
20.490142690,2973.0
20.498498324,2949.0
20.506853959,2928.0
20.515209593,2892.0
20.523565228,2906.0
20.531920862,2876.0
20.540276497,2826.0
20.548632131,2891.0
20.556987766,2873.0
20.565343400,2916.0
20.573699035,2764.0
20.582054669,2730.0
20.590410304,2727.0
20.598765938,2670.0
20.607121573,2824.0
20.615477207,2866.0
20.623832841,2918.0
20.632188476,2780.0
20.640544110,2753.0
20.648899745,2884.0
20.657255379,2907.0
20.665611014,2806.0
20.673966648,2831.0
20.682322283,2820.0
20.690677917,2861.0
20.699033552,3016.0
20.707389186,2984.0
20.715744821,2869.0
20.724100455,3053.0
20.732456090,2909.0
20.740811724,2975.0
20.749167359,2875.0
20.757522993,2969.0
20.765878628,2868.0
20.774234262,2959.0
20.782589897,2830.0
20.790945531,2882.0
20.799301166,2944.0
20.807656800,2842.0
20.816012435,3031.0
20.824368069,2979.0
20.832723704,2963.0
20.841079338,2952.0
20.849434973,3058.0
20.857790607,3091.0
20.866146242,2974.0
20.874501876,2946.0
20.882857511,3057.0
20.891213145,3086.0
20.899568780,3073.0
20.907924414,3076.0
20.916280049,3062.0
20.924635683,3100.0
20.932991318,3123.0
20.941346952,3098.0
20.949702587,3051.0
20.958058221,3180.0
20.966413856,3089.0
20.974769490,3167.0
20.983125125,3021.0
20.991480759,2982.0
20.999836393,3206.0
21.008192028,3047.0
21.016547662,3061.0
21.024903297,2966.0
21.033258931,3108.0
21.041614566,3062.0
21.049970200,3241.0
21.058325835,3198.0
21.066681469,3199.0
21.075037104,3218.0
21.083392738,3132.0
21.091748373,3143.0
21.100104007,3017.0
21.108459642,3102.0
21.116815276,3046.0
21.125170911,3103.0
21.133526545,2942.0
21.141882180,2978.0
21.150237814,3045.0
21.158593449,2881.0
21.166949083,2936.0
21.175304718,2889.0
21.183660352,2900.0
21.192015987,2817.0
21.200371621,2953.0
21.208727256,2962.0
21.217082890,2931.0
21.225438525,3008.0
21.233794159,3004.0
21.242149794,3018.0
21.250505428,2828.0
21.258861063,2906.0
21.267216697,3008.0
21.275572332,2921.0
21.283927966,2857.0
21.292283601,3011.0
21.300639235,2829.0
21.308994870,2912.0
21.317350504,2958.0
21.325706139,2851.0
21.334061773,2996.0
21.342417408,2899.0
21.350773042,2894.0
21.359128677,3003.0
21.367484311,2935.0
21.375839945,2953.0
21.384195580,2956.0
21.392551214,3070.0
21.400906849,3082.0
21.409262483,3093.0
21.417618118,3058.0
21.425973752,3098.0
21.434329387,3094.0
21.442685021,3126.0
21.451040656,3173.0
21.459396290,3112.0
21.467751925,3275.0
21.476107559,3218.0
21.484463194,3165.0
21.492818828,3197.0
21.501174463,3235.0
21.509530097,3253.0
21.517885732,3150.0
21.526241366,3164.0
21.534597001,3098.0
21.542952635,3094.0
21.551308270,2962.0
21.559663904,3030.0
21.568019539,2839.0
21.576375173,2869.0
21.584730808,2900.0
21.593086442,2823.0
21.601442077,2943.0
21.609797711,2945.0
21.618153346,2997.0
21.626508980,2982.0
21.634864615,2947.0
21.643220249,3026.0
21.651575884,2904.0
21.659931518,3045.0
21.668287153,2933.0
21.676642787,2935.0
21.684998422,3025.0
21.693354056,2915.0
21.701709691,2897.0
21.710065325,2920.0
21.718420960,2962.0
21.726776594,2843.0
21.735132228,3076.0
21.743487863,2977.0
21.751843497,2911.0
21.760199132,2909.0
21.768554766,2941.0
21.776910401,2894.0
21.785266035,2928.0
21.793621670,2956.0
21.801977304,2915.0
21.810332939,2911.0
21.818688573,2928.0
21.827044208,3027.0
21.835399842,2940.0
21.843755477,2951.0
21.852111111,3046.0
21.860466746,2996.0
21.868822380,2938.0
21.877178015,2909.0
21.885533649,2836.0
21.893889284,3060.0
21.902244918,3100.0
21.910600553,3073.0
21.918956187,3189.0
21.927311822,3116.0
21.935667456,3006.0
21.944023091,3120.0
21.952378725,3133.0
21.960734360,3260.0
21.969089994,3198.0
21.977445629,3353.0
21.985801263,3216.0
21.994156898,3363.0
22.002512532,3380.0
22.010868167,3484.0
22.019223801,3439.0
22.027579436,3585.0
22.035935070,3687.0
22.044290705,3672.0
22.052646339,3938.0
22.061001974,3977.0
22.069357608,3912.0
22.077713243,4028.0
22.086068877,4018.0
22.094424512,4131.0
22.102780146,4059.0
22.111135780,4229.0
22.119491415,4198.0
22.127847049,4047.0
22.136202684,4177.0
22.144558318,3924.0
22.152913953,3802.0
22.161269587,3848.0
22.169625222,3750.0
22.177980856,3551.0
22.186336491,3520.0
22.194692125,3458.0
22.203047760,3299.0
22.211403394,3184.0
22.219759029,3227.0
22.228114663,3024.0
22.236470298,3086.0
22.244825932,3082.0
22.253181567,3102.0
22.261537201,3029.0
22.269892836,3026.0
22.278248470,3000.0
22.286604105,3022.0
22.294959739,3005.0
22.303315374,2993.0
22.311671008,2933.0
22.320026643,3092.0
22.328382277,2973.0
22.336737912,2989.0
22.345093546,2909.0
22.353449181,3046.0
22.361804815,2948.0
22.370160450,2983.0
22.378516084,3057.0
22.386871719,3001.0
22.395227353,3000.0
22.403582988,2953.0
22.411938622,2926.0
22.420294257,2988.0
22.428649891,2991.0
22.437005526,3016.0
22.445361160,3057.0
22.453716795,3024.0
22.462072429,2997.0
22.470428064,2993.0
22.478783698,3014.0
22.487139332,2972.0
22.495494967,3081.0
22.503850601,3073.0
22.512206236,2956.0
22.520561870,3035.0
22.528917505,3131.0
22.537273139,3123.0
22.545628774,3094.0
22.553984408,3104.0
22.562340043,3207.0
22.570695677,3146.0
22.579051312,3124.0
22.587406946,3235.0
22.595762581,3182.0
22.604118215,3268.0
22.612473850,3342.0
22.620829484,3279.0
22.629185119,3420.0
22.637540753,3441.0
22.645896388,3517.0
22.654252022,3466.0
22.662607657,3463.0
22.670963291,3678.0
22.679318926,3827.0
22.687674560,3793.0
22.696030195,3730.0
22.704385829,3848.0
22.712741464,3840.0
22.721097098,3938.0
22.729452733,3851.0
22.737808367,3890.0
22.746164002,3772.0
22.754519636,3738.0
22.762875271,3600.0
22.771230905,3535.0
22.779586540,3448.0
22.787942174,3447.0
22.796297809,3309.0
22.804653443,3321.0
22.813009078,3260.0
22.821364712,3136.0
22.829720347,3289.0
22.838075981,3149.0
22.846431615,3119.0
22.854787250,3202.0
22.863142884,3137.0
22.871498519,3035.0
22.879854153,3134.0
22.888209788,3051.0
22.896565422,3072.0
22.904921057,3083.0
22.913276691,3081.0
22.921632326,3068.0
22.929987960,3218.0
22.938343595,3173.0
22.946699229,3249.0
22.955054864,3188.0
22.963410498,3282.0
22.971766133,3210.0
22.980121767,3296.0
22.988477402,3326.0
22.996833036,3422.0
23.005188671,3385.0
23.013544305,3448.0
23.021899940,3528.0
23.030255574,3532.0
23.038611209,3597.0
23.046966843,3552.0
23.055322478,3623.0
23.063678112,3587.0
23.072033747,3529.0
23.080389381,3655.0
23.088745016,3435.0
23.097100650,3393.0
23.105456285,3407.0
23.113811919,3462.0
23.122167554,3267.0
23.130523188,3387.0
23.138878823,3407.0
23.147234457,3305.0
23.155590092,3302.0
23.163945726,3187.0
23.172301361,3269.0
23.180656995,3089.0
23.189012630,3087.0
23.197368264,3081.0
23.205723899,2997.0
23.214079533,3126.0
23.222435167,3005.0
23.230790802,2988.0
23.239146436,2966.0
23.247502071,2984.0
23.255857705,3040.0
23.264213340,3103.0
23.272568974,2983.0
23.280924609,3157.0
23.289280243,3004.0
23.297635878,3029.0
23.305991512,3109.0
23.314347147,3006.0
23.322702781,3050.0
23.331058416,3059.0
23.339414050,3128.0
23.347769685,2997.0
23.356125319,3204.0
23.364480954,3121.0
23.372836588,3077.0
23.381192223,3107.0
23.389547857,3071.0
23.397903492,3154.0
23.406259126,3120.0
23.414614761,3122.0
23.422970395,3076.0
23.431326030,3167.0
23.439681664,3144.0
23.448037299,3132.0
23.456392933,3062.0
23.464748568,3178.0
23.473104202,2991.0
23.481459837,3104.0
23.489815471,3094.0
23.498171106,3130.0
23.506526740,3118.0
23.514882375,3132.0
23.523238009,3204.0
23.531593644,3187.0
23.539949278,3253.0
23.548304913,3240.0
23.556660547,3433.0
23.565016182,3384.0
23.573371816,3338.0
23.581727451,3387.0
23.590083085,3347.0
23.598438719,3372.0
23.606794354,3290.0
23.615149988,3266.0
23.623505623,3219.0
23.631861257,3268.0
23.640216892,3088.0
23.648572526,3105.0
23.656928161,3079.0
23.665283795,3139.0
23.673639430,3051.0
23.681995064,3001.0
23.690350699,3000.0
23.698706333,2881.0
23.707061968,3036.0
23.715417602,2962.0
23.723773237,2973.0
23.732128871,3032.0
23.740484506,3122.0
23.748840140,3043.0
23.757195775,2957.0
23.765551409,2935.0
23.773907044,3000.0
23.782262678,2959.0
23.790618313,2990.0
23.798973947,2897.0
23.807329582,3080.0
23.815685216,3077.0
23.824040851,2970.0
23.832396485,3036.0
23.840752120,3014.0
23.849107754,3159.0
23.857463389,3086.0
23.865819023,3059.0
23.874174658,3019.0
23.882530292,3043.0
23.890885927,3032.0
23.899241561,3173.0
23.907597196,3098.0
23.915952830,3135.0
23.924308465,3175.0
23.932664099,3132.0
23.941019734,3077.0
23.949375368,3108.0
23.957731003,2967.0
23.966086637,3130.0
23.974442271,3131.0
23.982797906,3104.0
23.991153540,3067.0
23.999509175,3258.0
24.007864809,3051.0
24.016220444,3150.0
24.024576078,3062.0
24.032931713,3067.0
24.041287347,3091.0
24.049642982,3131.0
24.057998616,3198.0
24.066354251,3204.0
24.074709885,3159.0
24.083065520,3031.0
24.091421154,3126.0
24.099776789,3155.0
24.108132423,3299.0
24.116488058,3135.0
24.124843692,3201.0
24.133199327,3183.0
24.141554961,3371.0
24.149910596,3587.0
24.158266230,3431.0
24.166621865,3449.0
24.174977499,3505.0
24.183333134,3518.0
24.191688768,3519.0
24.200044403,3530.0
24.208400037,3577.0
24.216755672,3611.0
24.225111306,3569.0
24.233466941,3608.0
24.241822575,3420.0
24.250178210,3518.0
24.258533844,3417.0
24.266889479,3483.0
24.275245113,3356.0
24.283600748,3314.0
24.291956382,3293.0
24.300312017,3318.0
24.308667651,3290.0
24.317023286,3244.0
24.325378920,3145.0
24.333734554,3149.0
24.342090189,3204.0
24.350445823,3109.0
24.358801458,2959.0
24.367157092,3036.0
24.375512727,3040.0
24.383868361,3089.0
24.392223996,3081.0
24.400579630,3077.0
24.408935265,3069.0
24.417290899,3113.0
24.425646534,3052.0
24.434002168,3121.0
24.442357803,3060.0
24.450713437,3091.0
24.459069072,3089.0
24.467424706,3157.0
24.475780341,3055.0
24.484135975,3073.0
24.492491610,3066.0
24.500847244,3088.0
24.509202879,3156.0
24.517558513,3152.0
24.525914148,3164.0
24.534269782,3146.0
24.542625417,3202.0
24.550981051,3060.0
24.559336686,3029.0
24.567692320,3091.0
24.576047955,3053.0
24.584403589,3039.0
24.592759224,2977.0
24.601114858,3093.0
24.609470493,3076.0
24.617826127,2915.0
24.626181762,3095.0
24.634537396,3062.0
24.642893031,2932.0
24.651248665,3087.0
24.659604300,2965.0
24.667959934,3035.0
24.676315569,2926.0
24.684671203,2961.0
24.693026838,2969.0
24.701382472,3098.0
24.709738106,2891.0
24.718093741,2899.0
24.726449375,2847.0
24.734805010,3020.0
24.743160644,2922.0
24.751516279,2916.0
24.759871913,2940.0
24.768227548,2982.0
24.776583182,2978.0
24.784938817,2993.0
24.793294451,2880.0
24.801650086,2884.0
24.810005720,2997.0
24.818361355,2966.0
24.826716989,3016.0
24.835072624,2982.0
24.843428258,2978.0
24.851783893,3020.0
24.860139527,3063.0
24.868495162,3114.0
24.876850796,2910.0
24.885206431,3006.0
24.893562065,2966.0
24.901917700,2965.0
24.910273334,3047.0
24.918628969,3010.0
24.926984603,3003.0
24.935340238,3018.0
24.943695872,3005.0
24.952051507,3001.0
24.960407141,2964.0
24.968762776,2983.0
24.977118410,2943.0
24.985474045,2999.0
24.993829679,2979.0
25.002185314,2999.0
25.010540948,3032.0
25.018896583,3028.0
25.027252217,2945.0
25.035607852,3059.0
25.043963486,2997.0
25.052319121,3047.0
25.060674755,3027.0
25.069030390,2969.0
25.077386024,3017.0
25.085741658,2962.0
25.094097293,3103.0
25.102452927,2999.0
25.110808562,3047.0
25.119164196,3010.0
25.127519831,2978.0
25.135875465,3110.0
25.144231100,2959.0
25.152586734,3064.0
25.160942369,3046.0
25.169298003,2930.0
25.177653638,3034.0
25.186009272,3104.0
25.194364907,3159.0
25.202720541,3145.0
25.211076176,3161.0
25.219431810,3086.0
25.227787445,3141.0
25.236143079,3142.0
25.244498714,3170.0
25.252854348,3247.0
25.261209983,3355.0
25.269565617,3238.0
25.277921252,3309.0
25.286276886,3342.0
25.294632521,3474.0
25.302988155,3509.0
25.311343790,3505.0
25.319699424,3566.0
25.328055059,3752.0
25.336410693,3922.0
25.344766328,4070.0
25.353121962,4225.0
25.361477597,4359.0
25.369833231,4478.0
25.378188866,4601.0
25.386544500,4828.0
25.394900135,4695.0
25.403255769,4940.0
25.411611404,4835.0
25.419967038,4936.0
25.428322673,4765.0
25.436678307,4625.0
25.445033941,4446.0
25.453389576,4325.0
25.461745210,4084.0
25.470100845,4182.0
25.478456479,3944.0
25.486812114,3877.0
25.495167748,3749.0
25.503523383,3561.0
25.511879017,3475.0
25.520234652,3385.0
25.528590286,3201.0
25.536945921,3150.0
25.545301555,3182.0
25.553657190,3135.0
25.562012824,3146.0
25.570368459,3196.0
25.578724093,3153.0
25.587079728,3098.0
25.595435362,3079.0
25.603790997,2956.0
25.612146631,2983.0
25.620502266,3041.0
25.628857900,2973.0
25.637213535,2985.0
25.645569169,3078.0
25.653924804,3056.0
25.662280438,2973.0
25.670636073,3010.0
25.678991707,2987.0
25.687347342,3110.0
25.695702976,3025.0
25.704058611,3008.0
25.712414245,2948.0
25.720769880,2925.0
25.729125514,2984.0
25.737481149,2975.0
25.745836783,2947.0
25.754192418,2974.0
25.762548052,2954.0
25.770903687,2874.0
25.779259321,2987.0
25.787614956,3093.0
25.795970590,2918.0
25.804326225,2986.0
25.812681859,3003.0
25.821037493,2850.0
25.829393128,3001.0
25.837748762,3000.0
25.846104397,2930.0
25.854460031,2973.0
25.862815666,2987.0
25.871171300,2928.0
25.879526935,3006.0
25.887882569,3081.0
25.896238204,3022.0
25.904593838,3041.0
25.912949473,3107.0
25.921305107,3084.0
25.929660742,3079.0
25.938016376,3040.0
25.946372011,2973.0
25.954727645,3024.0
25.963083280,3142.0
25.971438914,3202.0
25.979794549,3160.0
25.988150183,3139.0
25.996505818,3018.0
26.004861452,3251.0
26.013217087,3037.0
26.021572721,3234.0
26.029928356,3139.0
26.038283990,3091.0
26.046639625,3121.0
26.054995259,3105.0
26.063350894,3114.0
26.071706528,3062.0
26.080062163,3077.0
26.088417797,3040.0
26.096773432,3081.0
26.105129066,3081.0
26.113484701,3043.0
26.121840335,2964.0
26.130195970,2949.0
26.138551604,3024.0
26.146907239,3019.0
26.155262873,3105.0
26.163618508,3064.0
26.171974142,3013.0
26.180329777,3020.0
26.188685411,3080.0
26.197041045,2980.0
26.205396680,3024.0
26.213752314,2943.0
26.222107949,2991.0
26.230463583,2892.0
26.238819218,3025.0
26.247174852,3001.0
26.255530487,2912.0
26.263886121,3109.0
26.272241756,2931.0
26.280597390,3093.0
26.288953025,2984.0
26.297308659,3020.0
26.305664294,3060.0
26.314019928,2962.0
26.322375563,3010.0
26.330731197,2917.0
26.339086832,3004.0
26.347442466,2954.0
26.355798101,3076.0
26.364153735,3092.0
26.372509370,3076.0
26.380865004,2969.0
26.389220639,3071.0
26.397576273,3077.0
26.405931908,3056.0
26.414287542,3027.0
26.422643177,3056.0
26.430998811,3086.0
26.439354446,3042.0
26.447710080,3176.0
26.456065715,3022.0
26.464421349,3062.0
26.472776984,3093.0
26.481132618,3156.0
26.489488253,3125.0
26.497843887,3113.0
26.506199522,3118.0
26.514555156,3155.0
26.522910791,3229.0
26.531266425,3152.0
26.539622060,3130.0
26.547977694,3051.0
26.556333329,3334.0
26.564688963,3203.0
26.573044597,3177.0
26.581400232,3088.0
26.589755866,3204.0
26.598111501,3239.0
26.606467135,3201.0
26.614822770,3181.0
26.623178404,3214.0
26.631534039,3153.0
26.639889673,3165.0
26.648245308,3110.0
26.656600942,3166.0
26.664956577,3197.0
26.673312211,3074.0
26.681667846,3066.0
26.690023480,3154.0
26.698379115,3196.0
26.706734749,3051.0
26.715090384,3063.0
26.723446018,3167.0
26.731801653,2966.0
26.740157287,3055.0
26.748512922,3074.0
26.756868556,3007.0
26.765224191,3031.0
26.773579825,2984.0
26.781935460,3147.0
26.790291094,3001.0
26.798646729,3031.0
26.807002363,2840.0
26.815357998,3010.0
26.823713632,3095.0
26.832069267,2956.0
26.840424901,3041.0
26.848780536,3020.0
26.857136170,3077.0
26.865491805,3014.0
26.873847439,2944.0
26.882203074,2991.0
26.890558708,2922.0
26.898914343,3042.0
26.907269977,2993.0
26.915625612,3047.0
26.923981246,3086.0
26.932336880,2875.0
26.940692515,3040.0
26.949048149,2938.0
26.957403784,2998.0
26.965759418,2964.0
26.974115053,3066.0
26.982470687,2916.0
26.990826322,3068.0
26.999181956,2991.0
27.007537591,2964.0
27.015893225,2959.0
27.024248860,3043.0
27.032604494,2866.0
27.040960129,3114.0
27.049315763,3060.0
27.057671398,2983.0
27.066027032,3079.0
27.074382667,3066.0
27.082738301,2993.0
27.091093936,2985.0
27.099449570,2942.0
27.107805205,3125.0
27.116160839,3093.0
27.124516474,2917.0
27.132872108,3036.0
27.141227743,3066.0
27.149583377,2928.0
27.157939012,2973.0
27.166294646,3077.0
27.174650281,3005.0
27.183005915,2983.0
27.191361550,3070.0
27.199717184,2944.0
27.208072819,3097.0
27.216428453,2952.0
27.224784088,3019.0
27.233139722,2982.0
27.241495357,2972.0
27.249850991,3003.0
27.258206626,2997.0
27.266562260,2980.0
27.274917895,2986.0
27.283273529,3121.0
27.291629164,3039.0
27.299984798,3045.0
27.308340432,3000.0
27.316696067,2997.0
27.325051701,3099.0
27.333407336,3042.0
27.341762970,3072.0
27.350118605,2989.0
27.358474239,3188.0
27.366829874,3195.0
27.375185508,3068.0
27.383541143,3114.0
27.391896777,3104.0
27.400252412,3063.0
27.408608046,3154.0
27.416963681,3139.0
27.425319315,3062.0
27.433674950,3064.0
27.442030584,3172.0
27.450386219,3073.0
27.458741853,3135.0
27.467097488,3052.0
27.475453122,3053.0
27.483808757,3119.0
27.492164391,3003.0
27.500520026,2986.0
27.508875660,3014.0
27.517231295,2961.0
27.525586929,2976.0
27.533942564,3067.0
27.542298198,3092.0
27.550653833,3115.0
27.559009467,3224.0
27.567365102,3110.0
27.575720736,3072.0
27.584076371,3099.0
27.592432005,3137.0
27.600787640,3053.0
27.609143274,3239.0
27.617498909,3163.0
27.625854543,3264.0
27.634210178,3171.0
27.642565812,3187.0
27.650921447,3161.0
27.659277081,3214.0
27.667632716,3218.0
27.675988350,3342.0
27.684343984,3270.0
27.692699619,3297.0
27.701055253,3411.0
27.709410888,3423.0
27.717766522,3493.0
27.726122157,3698.0
27.734477791,3618.0
27.742833426,3788.0
27.751189060,3896.0
27.759544695,4063.0
27.767900329,4106.0
27.776255964,4179.0
27.784611598,4275.0
27.792967233,4436.0
27.801322867,4456.0
27.809678502,4642.0
27.818034136,4501.0
27.826389771,4367.0
27.834745405,4217.0
27.843101040,4032.0
27.851456674,3958.0
27.859812309,3882.0
27.868167943,3993.0
27.876523578,3948.0
27.884879212,3821.0
27.893234847,3550.0
27.901590481,3702.0
27.909946116,3605.0
27.918301750,3535.0
27.926657385,3584.0
27.935013019,3475.0
27.943368654,3447.0
27.951724288,3500.0
27.960079923,3472.0
27.968435557,3462.0
27.976791192,3562.0
27.985146826,3464.0
27.993502461,3412.0
28.001858095,3571.0
28.010213730,3576.0
28.018569364,3627.0
28.026924999,3597.0
28.035280633,3812.0
28.043636267,3682.0
28.051991902,3725.0
28.060347536,3717.0
28.068703171,3760.0
28.077058805,3679.0
28.085414440,3714.0
28.093770074,3739.0
28.102125709,3560.0
28.110481343,3616.0
28.118836978,3609.0
28.127192612,3644.0
28.135548247,3822.0
28.143903881,3581.0
28.152259516,3767.0
28.160615150,3844.0
28.168970785,3783.0
28.177326419,3841.0
28.185682054,4019.0
28.194037688,3965.0
28.202393323,4246.0
28.210748957,4349.0
28.219104592,4505.0
28.227460226,4486.0
28.235815861,4767.0
28.244171495,5046.0
28.252527130,4926.0
28.260882764,5134.0
28.269238399,5168.0
28.277594033,5584.0
28.285949668,5594.0
28.294305302,5812.0
28.302660937,6222.0
28.311016571,6498.0
28.319372206,7032.0
28.327727840,7313.0
28.336083475,7741.0
28.344439109,8112.0
28.352794744,8441.0
28.361150378,8718.0
28.369506013,8865.0
28.377861647,8979.0
28.386217282,8898.0
28.394572916,8521.0
28.402928551,8442.0
28.411284185,7977.0
28.419639819,7578.0
28.427995454,7241.0
28.436351088,6921.0
28.444706723,6648.0
28.453062357,6419.0
28.461417992,5927.0
28.469773626,5742.0
28.478129261,5293.0
28.486484895,5062.0
28.494840530,4672.0
28.503196164,4267.0
28.511551799,4162.0
28.519907433,3897.0
28.528263068,3812.0
28.536618702,3531.0
28.544974337,3542.0
28.553329971,3505.0
28.561685606,3504.0
28.570041240,3402.0
28.578396875,3456.0
28.586752509,3380.0
28.595108144,3382.0
28.603463778,3386.0
28.611819413,3407.0
28.620175047,3431.0
28.628530682,3359.0
28.636886316,3249.0
28.645241951,3246.0
28.653597585,3136.0
28.661953220,3232.0
28.670308854,3174.0
28.678664489,3272.0
28.687020123,3257.0
28.695375758,3110.0
28.703731392,3245.0
28.712087027,3322.0
28.720442661,3310.0
28.728798296,3243.0
28.737153930,3317.0
28.745509565,3332.0
28.753865199,3303.0
28.762220834,3344.0
28.770576468,3272.0
28.778932103,3323.0
28.787287737,3258.0
28.795643371,3382.0
28.803999006,3259.0
28.812354640,3241.0
28.820710275,3143.0
28.829065909,3343.0
28.837421544,3261.0
28.845777178,3289.0
28.854132813,3283.0
28.862488447,3297.0
28.870844082,3154.0
28.879199716,3161.0
28.887555351,3295.0
28.895910985,3276.0
28.904266620,3251.0
28.912622254,3268.0
28.920977889,3259.0
28.929333523,3285.0
28.937689158,3384.0
28.946044792,3293.0
28.954400427,3163.0
28.962756061,3149.0
28.971111696,3334.0
28.979467330,3282.0
28.987822965,3255.0
28.996178599,3314.0
29.004534234,3317.0
29.012889868,3324.0
29.021245503,3370.0
29.029601137,3532.0
29.037956772,3379.0
29.046312406,3515.0
29.054668041,3407.0
29.063023675,3543.0
29.071379310,3681.0
29.079734944,3508.0
29.088090579,3601.0
29.096446213,3827.0
29.104801848,3912.0
29.113157482,3979.0
29.121513117,4037.0
29.129868751,4168.0
29.138224386,4231.0
29.146580020,4528.0
29.154935655,4599.0
29.163291289,4917.0
29.171646923,5096.0
29.180002558,5416.0
29.188358192,5646.0
29.196713827,5985.0
29.205069461,6327.0
29.213425096,6750.0
29.221780730,7301.0
29.230136365,7477.0
29.238491999,7983.0
29.246847634,8104.0
29.255203268,8529.0
29.263558903,8651.0
29.271914537,8693.0
29.280270172,8456.0
29.288625806,8116.0
29.296981441,8056.0
29.305337075,7481.0
29.313692710,7134.0
29.322048344,6632.0
29.330403979,6377.0
29.338759613,6201.0
29.347115248,5858.0
29.355470882,5519.0
29.363826517,5302.0
29.372182151,5024.0
29.380537786,4696.0
29.388893420,4267.0
29.397249055,4073.0
29.405604689,3856.0
29.413960324,3736.0
29.422315958,3662.0
29.430671593,3567.0
29.439027227,3474.0
29.447382862,3373.0
29.455738496,3391.0
29.464094131,3354.0
29.472449765,3353.0
29.480805400,3374.0
29.489161034,3416.0
29.497516669,3438.0
29.505872303,3378.0
29.514227938,3352.0
29.522583572,3296.0
29.530939206,3303.0
29.539294841,3345.0
29.547650475,3307.0
29.556006110,3335.0
29.564361744,3411.0
29.572717379,3299.0
29.581073013,3224.0
29.589428648,3275.0
29.597784282,3244.0
29.606139917,3290.0
29.614495551,3256.0
29.622851186,3341.0
29.631206820,3416.0
29.639562455,3291.0
29.647918089,3411.0
29.656273724,3321.0
29.664629358,3364.0
29.672984993,3257.0
29.681340627,3437.0
29.689696262,3489.0
29.698051896,3498.0
29.706407531,3540.0
29.714763165,3606.0
29.723118800,3626.0
29.731474434,3697.0
29.739830069,3672.0
29.748185703,3813.0
29.756541338,3814.0
29.764896972,3877.0
29.773252607,4026.0
29.781608241,4053.0
29.789963876,4422.0
29.798319510,4550.0
29.806675145,4750.0
29.815030779,4936.0
29.823386414,5094.0
29.831742048,5486.0
29.840097683,5544.0
29.848453317,6000.0
29.856808952,6280.0
29.865164586,6698.0
29.873520221,6896.0
29.881875855,7273.0
29.890231490,7523.0
29.898587124,7682.0
29.906942758,7721.0
29.915298393,7695.0
29.923654027,7529.0
29.932009662,7122.0
29.940365296,6780.0
29.948720931,6590.0
29.957076565,6181.0
29.965432200,6053.0
29.973787834,5731.0
29.982143469,5643.0
29.990499103,5206.0
29.998854738,5081.0
30.007210372,4921.0
30.015566007,4539.0
30.023921641,4283.0
30.032277276,4244.0
30.040632910,3889.0
30.048988545,3720.0
30.057344179,3685.0
30.065699814,3668.0
30.074055448,3660.0
30.082411083,3656.0
30.090766717,3613.0
30.099122352,3525.0
30.107477986,3632.0
30.115833621,3530.0
30.124189255,3535.0
30.132544890,3713.0
30.140900524,3773.0
30.149256159,3683.0
30.157611793,3779.0
30.165967428,3943.0
30.174323062,3787.0
30.182678697,3841.0
30.191034331,3811.0
30.199389966,3868.0
30.207745600,3885.0
30.216101235,3804.0
30.224456869,3810.0
30.232812504,3603.0
30.241168138,3518.0
30.249523773,3667.0
30.257879407,3445.0
30.266235042,3528.0
30.274590676,3317.0
30.282946310,3358.0
30.291301945,3348.0
30.299657579,3355.0
30.308013214,3255.0
30.316368848,3149.0
30.324724483,3264.0
30.333080117,3122.0
30.341435752,3123.0
30.349791386,3165.0
30.358147021,3183.0
30.366502655,3143.0
30.374858290,3146.0
30.383213924,3133.0
30.391569559,3257.0
30.399925193,3217.0
30.408280828,3157.0
30.416636462,3160.0
30.424992097,3177.0
30.433347731,3164.0
30.441703366,3196.0
30.450059000,3152.0
30.458414635,3198.0
30.466770269,3194.0
30.475125904,3184.0
30.483481538,3166.0
30.491837173,3227.0
30.500192807,3208.0
30.508548442,3208.0
30.516904076,3140.0
30.525259711,3286.0
30.533615345,3232.0
30.541970980,3199.0
30.550326614,3140.0
30.558682249,3159.0
30.567037883,3212.0
30.575393518,3170.0
30.583749152,3142.0
30.592104787,3120.0
30.600460421,3230.0
30.608816056,3156.0
30.617171690,3119.0
30.625527325,3232.0
30.633882959,3208.0
30.642238593,3241.0
30.650594228,3164.0
30.658949862,3059.0
30.667305497,3036.0
30.675661131,3132.0
30.684016766,3144.0
30.692372400,3103.0
30.700728035,3119.0
30.709083669,3097.0
30.717439304,3086.0
30.725794938,3049.0
30.734150573,3031.0
30.742506207,3171.0
30.750861842,3142.0
30.759217476,3008.0
30.767573111,3126.0
30.775928745,3131.0
30.784284380,3225.0
30.792640014,3099.0
30.800995649,3224.0
30.809351283,3201.0
30.817706918,3177.0
30.826062552,3189.0
30.834418187,3198.0
30.842773821,3108.0
30.851129456,3248.0
30.859485090,3310.0
30.867840725,3120.0
30.876196359,3246.0
30.884551994,3285.0
30.892907628,3105.0
30.901263263,3184.0
30.909618897,3291.0
30.917974532,3220.0
30.926330166,3272.0
30.934685801,3340.0
30.943041435,3329.0
30.951397070,3195.0
30.959752704,3250.0
30.968108339,3260.0
30.976463973,3309.0
30.984819608,3455.0
30.993175242,3364.0
31.001530877,3395.0
31.009886511,3416.0
31.018242145,3321.0
31.026597780,3432.0
31.034953414,3503.0
31.043309049,3353.0
31.051664683,3438.0
31.060020318,3412.0
31.068375952,3496.0
31.076731587,3484.0
31.085087221,3543.0
31.093442856,3536.0
31.101798490,3661.0
31.110154125,3676.0
31.118509759,3533.0
31.126865394,3741.0
31.135221028,3832.0
31.143576663,3850.0
31.151932297,4066.0
31.160287932,4032.0
31.168643566,4061.0
31.176999201,4124.0
31.185354835,3948.0
31.193710470,3858.0
31.202066104,3720.0
31.210421739,3642.0
31.218777373,3795.0
31.227133008,3765.0
31.235488642,3766.0
31.243844277,3691.0
31.252199911,3735.0
31.260555546,3775.0
31.268911180,3725.0
31.277266815,3814.0
31.285622449,3803.0
31.293978084,3889.0
31.302333718,3924.0
31.310689353,3980.0
31.319044987,3936.0
31.327400622,4176.0
31.335756256,4214.0
31.344111891,4452.0
31.352467525,4453.0
31.360823160,4738.0
31.369178794,5068.0
31.377534429,5173.0
31.385890063,5282.0
31.394245697,5071.0
31.402601332,5072.0
31.410956966,4822.0
31.419312601,4829.0
31.427668235,4666.0
31.436023870,4424.0
31.444379504,4459.0
31.452735139,4267.0
31.461090773,4475.0
31.469446408,4298.0
31.477802042,3987.0
31.486157677,3781.0
31.494513311,3783.0
31.502868946,3644.0
31.511224580,3548.0
31.519580215,3443.0
31.527935849,3387.0
31.536291484,3301.0
31.544647118,3235.0
31.553002753,3133.0
31.561358387,3162.0
31.569714022,3225.0
31.578069656,3071.0
31.586425291,3180.0
31.594780925,3222.0
31.603136560,3182.0
31.611492194,3195.0
31.619847829,3124.0
31.628203463,3204.0
31.636559098,3134.0
31.644914732,3135.0
31.653270367,3053.0
31.661626001,3101.0
31.669981636,3230.0
31.678337270,2985.0
31.686692905,3098.0
31.695048539,3101.0
31.703404174,3028.0
31.711759808,3093.0
31.720115443,3111.0
31.728471077,3167.0
31.736826712,3189.0
31.745182346,3070.0
31.753537981,3199.0
31.761893615,3180.0
31.770249249,3222.0
31.778604884,3093.0
31.786960518,3122.0
31.795316153,3132.0
31.803671787,3143.0
31.812027422,3102.0
31.820383056,3145.0
31.828738691,3175.0
31.837094325,3080.0
31.845449960,3076.0
31.853805594,3040.0
31.862161229,3163.0
31.870516863,3020.0
31.878872498,3093.0
31.887228132,3191.0
31.895583767,3208.0
31.903939401,3195.0
31.912295036,3153.0
31.920650670,3266.0
31.929006305,3213.0
31.937361939,3228.0
31.945717574,3222.0
31.954073208,3215.0
31.962428843,3375.0
31.970784477,3264.0
31.979140112,3506.0
31.987495746,3459.0
31.995851381,3568.0
32.004207015,3615.0
32.012562650,3755.0
32.020918284,3700.0
32.029273919,3873.0
32.037629553,3937.0
32.045985188,4006.0
32.054340822,4025.0
32.062696457,4245.0
32.071052091,4313.0
32.079407726,4338.0
32.087763360,4496.0
32.096118995,4507.0
32.104474629,4625.0
32.112830264,4568.0
32.121185898,4499.0
32.129541532,4460.0
32.137897167,4579.0
32.146252801,4331.0
32.154608436,4162.0
32.162964070,4174.0
32.171319705,4053.0
32.179675339,3997.0
32.188030974,3954.0
32.196386608,3892.0
32.204742243,3769.0
32.213097877,3838.0
32.221453512,3661.0
32.229809146,3553.0
32.238164781,3538.0
32.246520415,3473.0
32.254876050,3404.0
32.263231684,3302.0
32.271587319,3333.0
32.279942953,3285.0
32.288298588,3261.0
32.296654222,3293.0
32.305009857,3288.0
32.313365491,3299.0
32.321721126,3285.0
32.330076760,3328.0
32.338432395,3321.0
32.346788029,3317.0
32.355143664,3437.0
32.363499298,3433.0
32.371854933,3399.0
32.380210567,3485.0
32.388566202,3524.0
32.396921836,3494.0
32.405277471,3569.0
32.413633105,3593.0
32.421988740,3629.0
32.430344374,3670.0
32.438700009,3864.0
32.447055643,3696.0
32.455411278,3660.0
32.463766912,3853.0
32.472122547,3793.0
32.480478181,3735.0
32.488833816,3877.0
32.497189450,3865.0
